#PACS Blue
#wavelength(angstroms) relative transmission (including detector)
481930 0.000e+00
484850 0.000e+00
487799 1.000e-08
490800 2.000e-08
493829 4.995e-08
496889 5.000e-08
500000 1.600e-07
503139 1.194e-07
506329 1.900e-06
509550 1.322e-06
512820 8.100e-07
516129 3.470e-06
519480 5.609e-07
522879 2.378e-05
526319 4.489e-05
529799 7.239e-05
533330 7.403e-05
536910 8.067e-05
540540 1.274e-04
544220 2.922e-04
547949 6.855e-04
551720 1.492e-03
555559 3.882e-03
559440 9.336e-03
563380 1.724e-02
567379 2.899e-02
571430 4.493e-02
575540 6.329e-02
579710 8.589e-02
583940 1.120e-01
588240 1.423e-01
592590 1.745e-01
597010 2.100e-01
601500 2.479e-01
606059 2.816e-01
610690 3.089e-01
615379 3.297e-01
620159 3.586e-01
625000 3.902e-01
629920 4.131e-01
634920 4.381e-01
640000 4.697e-01
645159 4.997e-01
650410 5.139e-01
655739 5.142e-01
661159 5.119e-01
666669 5.154e-01
672269 5.082e-01
677969 4.955e-01
683759 4.693e-01
689660 4.477e-01
695650 4.488e-01
701750 4.496e-01
707959 4.507e-01
714290 4.615e-01
720719 4.679e-01
727269 4.690e-01
733939 4.783e-01
740739 4.886e-01
747659 4.975e-01
754720 5.014e-01
761900 4.962e-01
769229 4.825e-01
776699 4.522e-01
784309 4.103e-01
792080 3.960e-01
800000 3.787e-01
808079 3.477e-01
816330 3.051e-01
824739 2.525e-01
833330 1.982e-01
842109 1.511e-01
851060 1.176e-01
860220 9.475e-02
869570 7.244e-02
879120 5.236e-02
888889 3.675e-02
898880 2.560e-02
909089 2.009e-02
919540 1.711e-02
930230 1.427e-02
941179 1.116e-02
952379 8.707e-03
963860 6.772e-03
975609 5.311e-03
987649 4.409e-03
1000000 3.402e-03
1012699 2.343e-03
1025599 1.641e-03
1039000 1.289e-03
1052600 9.809e-04
1066699 7.008e-04
1081100 5.600e-04
1095899 3.993e-04
1111100 3.150e-04
1126800 2.620e-04
1142900 2.076e-04
1159400 1.416e-04
1176500 1.188e-04
1194000 9.424e-05
1212099 4.581e-05
1230800 2.565e-05
1250000 1.274e-05
1269800 6.954e-06
1290299 2.934e-06
1311499 1.070e-06
1333300 1.211e-06
1355899 1.240e-06
1379299 5.802e-07
1403500 8.002e-07
1428600 7.959e-08
1454499 9.981e-08
1481499 3.996e-08
1509400 1.000e-08
1538500 1.000e-08
1568600 1.000e-08
1600000 0.000e+00
1632700 0.000e+00
