#wavelength (angstroms) relative transmission
1600 0.00041
1610 0.00108
1620 0.00184
1630 0.00305
1640 0.00432
1650 0.00571
1660 0.00729
1670 0.00877
1680 0.01010
1690 0.01143
1700 0.01305
1710 0.01419
1720 0.01532
1730 0.01749
1740 0.02005
1750 0.02266
1760 0.02542
1770 0.02828
1780 0.03113
1790 0.03463
1800 0.03847
1810 0.04286
1820 0.04754
1830 0.05320
1840 0.05961
1850 0.06601
1860 0.07438
1870 0.08374
1880 0.08818
1890 0.10197
1900 0.12217
1910 0.14039
1920 0.16601
1930 0.19360
1940 0.22906
1950 0.27094
1960 0.31872
1970 0.37438
1980 0.43645
1990 0.50246
2000 0.57635
2010 0.64532
2020 0.71429
2030 0.77833
2040 0.83251
2050 0.87685
2060 0.91626
2070 0.94089
2080 0.96552
2090 0.97537
2100 0.98030
2110 0.99015
2120 1.00000
2130 1.00000
2140 1.00000
2150 1.00000
2160 1.00000
2170 1.00000
2180 0.99507
2190 0.99507
2200 0.99507
2210 0.97044
2220 0.95567
2230 0.93596
2240 0.91133
2250 0.90640
2260 0.89655
2270 0.89163
2280 0.87685
2290 0.86700
2300 0.85714
2310 0.84729
2320 0.83251
2330 0.82266
2340 0.80788
2350 0.79803
2360 0.78818
2370 0.77833
2380 0.76355
2390 0.75369
2400 0.73892
2410 0.72906
2420 0.70936
2430 0.68966
2440 0.67488
2450 0.65025
2460 0.62069
2470 0.59113
2480 0.56158
2490 0.53202
2500 0.50739
2510 0.47635
2520 0.44483
2530 0.41379
2540 0.38374
2550 0.35714
2560 0.33054
2570 0.30443
2580 0.27980
2590 0.25616
2600 0.23399
2610 0.21281
2620 0.19360
2630 0.17537
2640 0.15813
2650 0.14286
2660 0.12857
2670 0.11576
2680 0.10493
2690 0.09458
2700 0.08522
2710 0.07635
2720 0.06897
2730 0.06256
2740 0.05616
2750 0.05074
2760 0.04581
2770 0.04128
2780 0.03739
2790 0.03374
2800 0.03074
2810 0.02778
2820 0.02537
2830 0.02300
2840 0.02089
2850 0.01911
2860 0.01764
2870 0.01616
2880 0.01468
2890 0.01350
2900 0.01261
2910 0.01143
2920 0.01059
2930 0.00970
2940 0.00911
2950 0.00823
2960 0.00764
2970 0.00709
2980 0.00675
2990 0.00621
3000 0.00562
3010 0.00532
3020 0.00502
3030 0.00475
3040 0.00447
3050 0.00413
3060 0.00379
3070 0.00347
3080 0.00315
3090 0.00284
3100 0.00280
3110 0.00250
3120 0.00246
3130 0.00217
3140 0.00213
3150 0.00191
3160 0.00192
3170 0.00168
3180 0.00169
3190 0.00146
3200 0.00147
3210 0.00139
3220 0.00132
3230 0.00125
3240 0.00120
3250 0.00115
3260 0.00110
3270 0.00105
3280 0.00100
3290 0.00095
3300 0.00090
3310 0.00085
3320 0.00079
3330 0.00074
3340 0.00074
3350 0.00074
3360 0.00073
3370 0.00073
3380 0.00073
3390 0.00067
3400 0.00063
3410 0.00058
3420 0.00052
3430 0.00047
3440 0.00047
3450 0.00047
3460 0.00047
3470 0.00047
3480 0.00047
3490 0.00047
3500 0.00047
3510 0.00048
3520 0.00048
3530 0.00048
3540 0.00043
3550 0.00038
3560 0.00034
3570 0.00029
3580 0.00024
3590 0.00024
3600 0.00024
3610 0.00024
3620 0.00024
3630 0.00024
3640 0.00024
3650 0.00025
3660 0.00025
3670 0.00025
3680 0.00025
3690 0.00025
3700 0.00025
3710 0.00025
3720 0.00025
3730 0.00025
3740 0.00025
3750 0.00025
3760 0.00025
3770 0.00025
3780 0.00024
3790 0.00024
3800 0.00024
3810 0.00024
3820 0.00024
3830 0.00024
3840 0.00024
3850 0.00024
3860 0.00024
3870 0.00023
3880 0.00023
3890 0.00023
3900 0.00023
3910 0.00023
3920 0.00023
3930 0.00023
3940 0.00023
3950 0.00022
3960 0.00022
3970 0.00021
3980 0.00021
3990 0.00020
4000 0.00020
4010 0.00020
4020 0.00019
4030 0.00019
4040 0.00018
4050 0.00018
4060 0.00018
4070 0.00017
4080 0.00017
4090 0.00017
4100 0.00016
4110 0.00016
4120 0.00016
4130 0.00015
4140 0.00015
4150 0.00014
4160 0.00014
4170 0.00014
4180 0.00013
4190 0.00013
4200 0.00012
4210 0.00012
4220 0.00012
4230 0.00011
4240 0.00011
4250 0.00011
4260 0.00010
4270 0.00010
4280 0.00010
4290 0.00009
4300 0.00009
4310 0.00009
4320 0.00008
4330 0.00008
4340 0.00008
4350 0.00007
4360 0.00007
4370 0.00006
4380 0.00006
4390 0.00006
4400 0.00005
4410 0.00005
4420 0.00005
4430 0.00004
4440 0.00004
4450 0.00004
4460 0.00003
4470 0.00003
4480 0.00003
4490 0.00002
4500 0.00002
4510 0.00002
4520 0.00001
4530 0.00001
4540 0.00001
4550 0.00001
4560 0.00000
4570 0.00000
